  time (s)              T(t) (K)              P(t) (Pa)           Kinetic En. (n.u.)     Potential En. (n.u.) Total En. (n.u.)
  0.00000000000e+00        99.82304615713         0.00000000000     2276.12983953768    -21170.98715572374    -18894.85731618605 
  5.00000000000e-15        99.43006643399         0.00000000000     2267.16925469663    -21153.06528702305    -18885.89603232642 
  1.00000000000e-14        98.77588379508         0.00000000000     2252.25281323090    -21123.22989993676    -18870.97708670587 
  1.50000000000e-14        97.86274191123         0.00000000000     2231.43167453034    -21081.58269290929    -18850.15101837895 
  2.00000000000e-14        96.69420691884         0.00000000000     2204.78715237723    -21028.28541040283    -18823.49825802560 
  2.50000000000e-14        95.27544708184         0.00000000000     2172.43709170030    -20963.57259504094    -18791.13550334064 
  3.00000000000e-14        93.61359318303         0.00000000000     2134.54408609046    -20887.76803066021    -18753.22394456975 
  3.50000000000e-14        91.71817530774         0.00000000000     2091.32543718684    -20801.30468650881    -18709.97924932198 
  4.00000000000e-14        89.60162562583         0.00000000000     2043.06461893576    -20704.74769971507    -18661.68308077931 
  4.50000000000e-14        87.27982723711         0.00000000000     1990.12379216898    -20598.81950055811    -18608.69570838914 
  5.00000000000e-14        84.77267539477         0.00000000000     1932.95660142205    -20484.42555899863    -18551.46895757658 
  5.50000000000e-14        82.10459940063         0.00000000000     1872.12007500644    -20362.67840537291    -18490.55833036647 
  6.00000000000e-14        79.30497260185         0.00000000000     1808.28397360921    -20234.91661524411    -18426.63264163490 
  6.50000000000e-14        76.40831815072         0.00000000000     1742.23548195458    -20102.71452449117    -18360.47904253659 
  7.00000000000e-14        73.45420663837         0.00000000000     1674.87687468475    -19967.87788271392    -18293.00100802918 
  7.50000000000e-14        70.48674793610         0.00000000000     1607.21392950462    -19832.42090609168    -18225.20697658706 
  8.00000000000e-14        67.55361228181         0.00000000000     1540.33360634130    -19698.52167177801    -18158.18806543671 
  8.50000000000e-14        64.70457697648         0.00000000000     1475.37090962935    -19568.45562174361    -18093.08471211425 
  9.00000000000e-14        61.98967522927         0.00000000000     1413.46667893192    -19444.51067120242    -18031.04399227049 
  9.50000000000e-14        59.45710103963         0.00000000000     1355.71981680139    -19328.89102912712    -17973.17121232572 
  1.00000000000e-13        57.15107350053         0.00000000000     1303.13859137713    -19223.61914722397    -17920.48055584684 
  1.05000000000e-13        55.10987045553         0.00000000000     1256.59580052727    -19130.44550126037    -17873.84970073310 
  1.10000000000e-13        53.36420805429         0.00000000000     1216.79182304716    -19050.77432634571    -17833.98250329855 
  1.15000000000e-13        51.93608654762         0.00000000000     1184.22830088534    -18985.61080155212    -17801.38250066678 
  1.20000000000e-13        50.83816249853         0.00000000000     1159.19382452049    -18935.53240251042    -17776.33857798993 
  1.25000000000e-13        50.07365433045         0.00000000000     1141.76177930716    -18900.68470834324    -17758.92292903608 
  1.30000000000e-13        49.63674418424         0.00000000000     1131.79950847622    -18880.79994910150    -17749.00044062528 
  1.35000000000e-13        49.51340384257         0.00000000000     1128.98714557111    -18875.23497114599    -17746.24782557488 
  1.40000000000e-13        49.68254684056         0.00000000000     1132.84388446760    -18883.02411988135    -17750.18023541375 
  1.45000000000e-13        50.11739509244         0.00000000000     1142.75914071229    -18902.94190531872    -17760.18276460643 
  1.50000000000e-13        50.78694777644         0.00000000000     1158.02604451706    -18933.57029331976    -17775.54424880271 
  1.55000000000e-13        51.65745157160         0.00000000000     1177.87496457992    -18973.36599523820    -17795.49103065828 
  1.60000000000e-13        52.69379096983         0.00000000000     1201.50520948840    -19020.72403904025    -17819.21882955185 
  1.65000000000e-13        53.86074066426         0.00000000000     1228.11358423744    -19074.03497971022    -17845.92139547279 
  1.70000000000e-13        55.12404481825         0.00000000000     1256.91899933935    -19131.73415505657    -17874.81515571723 
  1.75000000000e-13        56.45130756646         0.00000000000     1287.18277571565    -19192.34228833058    -17905.15951261493 
  1.80000000000e-13        57.81269408484         0.00000000000     1318.22463024654    -19254.49742233783    -17936.27279209129 
  1.85000000000e-13        59.18145183919         0.00000000000     1349.43456109623    -19316.97863634873    -17967.54407525249 
  1.90000000000e-13        60.53426772126         0.00000000000     1380.28099100510    -19378.72227241612    -17998.44128141101 
  1.95000000000e-13        61.85147951909         0.00000000000     1410.31558916120    -19438.83151996548    -18028.51593080427 
  2.00000000000e-13        63.11716036788         0.00000000000     1439.17519681853    -19496.58021436382    -18057.40501754529 
  2.05000000000e-13        64.31909322878         0.00000000000     1466.58124537280    -19551.41163014724    -18084.83038477444 
  2.10000000000e-13        65.44864973006         0.00000000000     1492.33699373928    -19602.93292379648    -18110.59593005720 
  2.15000000000e-13        66.50058458875         0.00000000000     1516.32284082859    -19650.90573634336    -18134.58289551477 
  2.20000000000e-13        67.47275410937         0.00000000000     1538.48990685361    -19695.23333933319    -18156.74343247958 
  2.25000000000e-13        68.36576578724         0.00000000000     1558.85204370778    -19735.94463805151    -18177.09259434373 
  2.30000000000e-13        69.18256662811         0.00000000000     1577.47644797544    -19773.17537081684    -18195.69892284140 
  2.35000000000e-13        69.92798096557         0.00000000000     1594.47312240716    -19807.14698744834    -18212.67386504118 
  2.40000000000e-13        70.60821429679         0.00000000000     1609.98356255747    -19838.14395429022    -18228.16039173274 
  2.45000000000e-13        71.23034708996         0.00000000000     1624.16921476110    -19866.49057806818    -18242.32136330708 
  2.50000000000e-13        71.80184969553         0.00000000000     1637.20041531020    -19892.52877741529    -18255.32836210509 
  2.55000000000e-13        72.33015356679         0.00000000000     1649.24661357826    -19916.59842652723    -18267.35181294897 
  2.60000000000e-13        72.82231203246         0.00000000000     1660.46863707505    -19939.02181156504    -18278.55317448999 
  2.65000000000e-13        73.28477426311         0.00000000000     1671.01353750994    -19960.09329981793    -18289.07976230799 
  2.70000000000e-13        73.72327988851         0.00000000000     1681.01218789385    -19980.07457063132    -18299.06238273747 
  2.75000000000e-13        74.14286288995         0.00000000000     1690.57937128986    -19999.19488037706    -18308.61550908721 
  2.80000000000e-13        74.54793734344         0.00000000000     1699.81573590025    -20017.65508692355    -18317.83935102330 
  2.85000000000e-13        74.94242885007         0.00000000000     1708.81079189436    -20035.63375535057    -18326.82296345621 
  2.90000000000e-13        75.32991569070         0.00000000000     1717.64612996841    -20053.29368169352    -18335.64755172511 
  2.95000000000e-13        75.71375125419         0.00000000000     1726.39821291081    -20070.78752627331    -18344.38931336250 
  3.00000000000e-13        76.09715048077         0.00000000000     1735.14034665336    -20088.26177081089    -18353.12142415754 
  3.05000000000e-13        76.48323420448         0.00000000000     1743.94369135105    -20105.85872924458    -18361.91503789353 
  3.10000000000e-13        76.87503392727         0.00000000000     1752.87737024074    -20123.71673851537    -18370.83936827463 
  3.15000000000e-13        77.27546492270         0.00000000000     1762.00785636049    -20141.96889853607    -18379.96104217558 
  3.20000000000e-13        77.68727806597         0.00000000000     1771.39787419493    -20160.74084127904    -18389.34296708410 
  3.25000000000e-13        78.11300132510         0.00000000000     1781.10506557816    -20180.14803077362    -18399.04296519546 
  3.30000000000e-13        78.55488124956         0.00000000000     1791.18065553734    -20200.29306702430    -18409.11241148697 
  3.35000000000e-13        79.01483354430         0.00000000000     1801.66832530009    -20221.26340956756    -18419.59508426747 
  3.40000000000e-13        79.49441007076         0.00000000000     1812.60345986322    -20243.12985702477    -18430.52639716156 
  3.45000000000e-13        79.99478732204         0.00000000000     1824.01288520642    -20265.94601479482    -18441.93312958840 
  3.50000000000e-13        80.51677848861         0.00000000000     1835.91514341173    -20289.74884942378    -18453.83370601205 
  3.55000000000e-13        81.06086766530         0.00000000000     1848.32127263859    -20314.56026518303    -18466.23899254444 
  3.60000000000e-13        81.62726072325         0.00000000000     1861.23596708782    -20340.38945355675    -18479.15348646892 
  3.65000000000e-13        82.21594329140         0.00000000000     1874.65889907541    -20367.23557819165    -18492.57667911625 
  3.70000000000e-13        82.82673286094         0.00000000000     1888.58590710061    -20395.09019826632    -18506.50429116571 
  3.75000000000e-13        83.45931027440         0.00000000000     1903.00971384671    -20423.93874912340    -18520.92903527669 
  3.80000000000e-13        84.11321705992         0.00000000000     1917.91986540093    -20453.76044978018    -18535.84058437925 
  3.85000000000e-13        84.78781034562         0.00000000000     1933.30170322530    -20484.52624612740    -18551.22454290210 
  3.90000000000e-13        85.48217663817         0.00000000000     1949.13439816796    -20516.19483876981    -18567.06044060185 
  3.95000000000e-13        86.19501797033         0.00000000000     1965.38835443790    -20548.70741361218    -18583.31905917428 
  4.00000000000e-13        86.92453509061         0.00000000000     1982.02254613872    -20581.98221880340    -18599.95967266469 
  4.05000000000e-13        87.66833769822         0.00000000000     1998.98247047572    -20615.91038680936    -18616.92791633364 
  4.10000000000e-13        88.42340775584         0.00000000000     2016.19931122776    -20650.35421886754    -18634.15490763979 
  4.15000000000e-13        89.18612896362         0.00000000000     2033.59061080352    -20685.14854290466    -18651.55793210114 
  4.20000000000e-13        89.95237821393         0.00000000000     2051.06235555883    -20720.10494567649    -18669.04259011766 
  4.25000000000e-13        90.71766009353         0.00000000000     2068.51204266898    -20755.01798920654    -18686.50594653757 
  4.30000000000e-13        91.47725860936         0.00000000000     2085.83213972561    -20789.67220356408    -18703.84006383847 
  4.35000000000e-13        92.22638260557         0.00000000000     2102.91340048597    -20823.84876192403    -18720.93536143807 
  4.40000000000e-13        92.96029019276         0.00000000000     2119.64770206225    -20857.33116265383    -18737.68346059158 
  4.45000000000e-13        93.67438849647         0.00000000000     2135.93031935373    -20889.90975667766    -18753.97943732393 
  4.50000000000e-13        94.36431426781         0.00000000000     2151.66176310014    -20921.38538593871    -18769.72362283856 
  4.55000000000e-13        95.02600622235         0.00000000000     2166.74942932835    -20951.57264270733    -18784.82321337898 
  4.60000000000e-13        95.65578087000         0.00000000000     2181.10932839864    -20980.30329839020    -18799.19396999156 
  4.65000000000e-13        96.25042055324  80467840.79271380603     2194.66809242050    -21007.43030860947    -18812.76221618896 
  4.70000000000e-13        96.80826945409         0.00000000000     2207.38796601746    -21032.87784585627    -18825.48987983881 
  4.75000000000e-13        97.32621046052         0.00000000000     2219.19787390190    -21056.50336801917    -18837.30549411727 
  4.80000000000e-13        97.80305791593         0.00000000000     2230.07078115074    -21078.25250641651    -18848.18172526577 
  4.85000000000e-13        98.23850516607         0.00000000000     2239.99969554222    -21098.11110583374    -18858.11141029152 
  4.90000000000e-13        98.63316824985         0.00000000000     2248.99866377778    -21116.10728121746    -18867.10861743968 
  4.95000000000e-13        98.98856603435  94972998.72779405117     2257.10231852833    -21132.31055189060    -18875.20823336227 
  5.00000000000e-13        99.30766186928         0.00000000000     2264.37822904721    -21146.85655145138    -18882.47832240417 
  5.05000000000e-13        99.59277113761         0.00000000000     2270.87918987903    -21159.85152869855    -18888.97233881953 
  5.10000000000e-13        99.84726943773         0.00000000000     2276.68217022593    -21171.45018945276    -18894.76801922682 
  5.15000000000e-13       100.07468522013         0.00000000000     2281.86762456953    -21181.81419237439    -18899.94656780486 
  5.20000000000e-13       100.27844743525         0.00000000000     2286.51373862701    -21191.10053408316    -18904.58679545615 
  5.25000000000e-13       100.46167270527         0.00000000000     2290.69157651630    -21199.45177294097    -18908.76019642467 
  5.30000000000e-13       100.62701459056         0.00000000000     2294.46164378350    -21206.98913804500    -18912.52749426150 
  5.35000000000e-13       100.77658119134         0.00000000000     2297.87200858542    -21213.80880493815    -18915.93679635274 
  5.40000000000e-13       100.91191186915         0.00000000000     2300.95777090011    -21219.98089583684    -18919.02312493673 
  5.45000000000e-13       101.03399489218         0.00000000000     2303.74146486983    -21225.55034458091    -18921.80887971108 
  5.50000000000e-13       101.14330778243         0.00000000000     2306.23397878224    -21230.53877091309    -18924.30479213084 
  5.55000000000e-13       101.23986947903         0.00000000000     2308.43574448118    -21234.94685876241    -18926.51111428124 
  5.60000000000e-13       101.32330359608         0.00000000000     2310.33817974794    -21238.75721385706    -18928.41903410913 
  5.65000000000e-13       101.39291989257         0.00000000000     2311.92554595108    -21241.93804519264    -18930.01249924156 
  5.70000000000e-13       101.44782303073  53725445.42242653668     2313.17742791485    -21244.44810646884    -18931.27067855399 
  5.75000000000e-13       101.48814275441         0.00000000000     2314.09678401276    -21246.29281300885    -18932.19602899608 
  5.80000000000e-13       101.51191969725         0.00000000000     2314.63893746494    -21247.38226384711    -18932.74332638217 
  5.85000000000e-13       101.51857557888         0.00000000000     2314.79070252697    -21247.68957454295    -18932.89887201598 
  5.90000000000e-13       101.50797665468         0.00000000000     2314.54902960096    -21247.20824744413    -18932.65921784317 
  5.95000000000e-13       101.48056058196  77381903.00105351210     2313.92389799454    -21245.95802466103    -18932.03412666649 
  6.00000000000e-13       101.43933408829         0.00000000000     2312.98386604778    -21244.07622106108    -18931.09235501330 
  6.05000000000e-13       101.38373260455         0.00000000000     2311.71606065485    -21241.53713283270    -18929.82107217786 
  6.10000000000e-13       101.31597196945         0.00000000000     2310.17100658724    -21238.44219064999    -18928.27118406275 
  6.15000000000e-13       101.23869804039         0.00000000000     2308.40903375101    -21234.91253099367    -18926.50349724267 
  6.20000000000e-13       101.15482751779         0.00000000000     2306.49664771905    -21231.08165936569    -18924.58501164664 
  6.25000000000e-13       101.06738109182  68892508.72990612686     2304.50272520151    -21227.08777593363    -18922.58505073212 
  6.30000000000e-13       100.98235937298  169562217.57480594516     2302.56408999939    -21223.20490428995    -18920.64081429056 
  6.35000000000e-13       100.90171504079  91051991.64620366693     2300.72526642147    -21219.52250162747    -18918.79723520600 
  6.40000000000e-13       100.83013437016  137291796.43553864956     2299.09310925318    -21216.25431518520    -18917.16120593202 
  6.45000000000e-13       100.76933383648  76790530.79178203642     2297.70675695975    -21213.47876245132    -18915.77200549157 
  6.50000000000e-13       100.71870632972         0.00000000000     2296.55236643291    -21211.16819282776    -18914.61582639486 
  6.55000000000e-13       100.67788021459  174120187.50645878911     2295.62146377612    -21209.30567542707    -18913.68421165095 
  6.60000000000e-13       100.65335633958  55952001.33696840703     2295.06227904035    -21208.18773095050    -18913.12545191015 
  6.65000000000e-13       100.64095822673         0.00000000000     2294.77958165026    -21207.62387004696    -18912.84428839670 
  6.70000000000e-13       100.63944681982         0.00000000000     2294.74511908387    -21207.55743171627    -18912.81231263240 
  6.75000000000e-13       100.64844831450  184333714.88951665163     2294.95036798609    -21207.97123464094    -18913.02086665485 
  6.80000000000e-13       100.67252934663  54293960.88431160897     2295.49945517494    -21209.07353080507    -18913.57407563013 
  6.85000000000e-13       100.70772318566         0.00000000000     2296.30193266150    -21210.68311752277    -18914.38118486127 
  6.90000000000e-13       100.75021743551  138303134.85529342294     2297.27087153712    -21212.62595783780    -18915.35508630068 
  6.95000000000e-13       100.80102807837         0.00000000000     2298.42943786841    -21214.94852126734    -18916.51908339893 
  7.00000000000e-13       100.85562072152         0.00000000000     2299.67424003455    -21217.44369422922    -18917.76945419467 
  7.05000000000e-13       100.91232225591         0.00000000000     2300.96712839406    -21220.03513160850    -18919.06800321444 
  7.10000000000e-13       100.96940921578  93534525.90596678853     2302.26880508899    -21222.64421847290    -18920.37541338391 
  7.15000000000e-13       101.02759652228  44072793.52679989487     2303.59557149920    -21225.30367236921    -18921.70810087000 
  7.20000000000e-13       101.08391338472  136421853.71470972896     2304.87968870463    -21227.87790250330    -18922.99821379867 
  7.25000000000e-13       101.13807978140         0.00000000000     2306.11477174935    -21230.35413460674    -18924.23936285738 
  7.30000000000e-13       101.18517316889         0.00000000000     2307.18857853699    -21232.50785340675    -18925.31927486976 
  7.35000000000e-13       101.22338098914  146989078.74298930168     2308.05977975863    -21234.25638774769    -18926.19660798906 
  7.40000000000e-13       101.25333019109         0.00000000000     2308.74267088313    -21235.62842888656    -18926.88575800343 
  7.45000000000e-13       101.27058256713         0.00000000000     2309.13605346778    -21236.42144217106    -18927.28538870328 
  7.50000000000e-13       101.27339645554  52543282.45657446980     2309.20021475732    -21236.55593386463    -18927.35571910731 
  7.55000000000e-13       101.26078631290  50478875.56357396394     2308.91268273900    -21235.98683250156    -18927.07414976256 
